Time,Signal
0.0,0.0
0.001,0.1558807747352699
0.002,0.3046925135702354
0.003,0.43997398853584285
0.004,0.5564213738741925
0.005,0.6503270911864674
0.006,0.7198661708090996
0.007,0.7652032616594268
0.008,0.788410900374357
0.009000000000000001,0.7932080311472284
0.01,0.7845452525225243
0.011,0.7680781467346464
0.012,0.7495808664403192
0.013000000000000001,0.7343578559739268
0.014,0.7267116136703864
0.015,0.7295187578871236
0.016,0.7439558970756942
0.017,0.7694019796263893
0.018000000000000002,0.8035263659083968
0.019,0.8425535319414854
0.02,0.8816778784387096
0.021,0.9155872895788237
0.022,0.9390433165495233
0.023,0.9474602077810688
0.024,0.9374250259698715
0.025,0.9071067811865476
0.026000000000000002,0.8565133138982902
0.027,0.7875695249230218
0.028,0.704008016891945
0.029,0.6110815741998223
0.03,0.5151243682287111
0.031,0.42300362243522815
0.032,0.34151425365562577
0.033,0.2767746653779463
0.034,0.23368185055182297
0.035,0.21547826604079093
0.036000000000000004,0.22347212384264445
0.037,0.2569378625948556
0.038,0.31320607121562083
0.039,0.38793374471489145
0.04,0.47552825814757665
0.041,0.5696835583189233
0.042,0.6639762488361187
0.043000000000000003,0.7524635394258425
0.044,0.8302250010233749
0.045,0.893795714448901
0.046,0.9414491675226508
0.047,0.9733030871357305
0.048,0.9912388353043389
0.049,0.9986433424585687
0.05,0.9999999999999997
0.051000000000000004,1.000369778272894
0.052000000000000005,1.004814621552204
0.053,1.0178208420704289
0.054,1.0427802351063045
0.055,1.081580966741374
0.056,1.134349500434002
0.057,1.1993699844516528
0.058,1.2731900734211443
0.059000000000000004,1.3509038130349635
0.06,1.4265847744427302
0.061,1.4938277931935597
0.062,1.5463469005608816
0.063,1.5785713887731065
0.064,1.5861819810893945
0.065,1.5665347823359446
0.066,1.5189315095359035
0.067,1.4447093886299407
0.068,1.3471415973484036
0.069,1.2311575261138954
0.07,1.1029096205211837
0.07100000000000001,0.9692284505515579
0.07200000000000001,0.8370184686596334
0.073,0.7126526143378983
0.074,0.601423940944534
0.075,0.507106781186548
0.076,0.43166918588750647
0.077,0.375163522866235
0.078,0.3358046629478564
0.079,0.31022681772712923
0.08,0.2938926261462365
0.081,0.2816132237627754
0.082,0.2681272240495969
0.083,0.2486808518743528
0.084,0.21955145112773633
0.085,0.17846224159197008
0.08600000000000001,0.12484696945975865
0.08700000000000001,0.059937925295633854
0.088,-0.0133317610709629
0.089,-0.09060230624406272
0.09,-0.1665112637726291
0.091,-0.23522581906877002
0.092,-0.2910311260446471
0.093,-0.32891677886634174
0.094,-0.34510354163765034
0.095,-0.3374581611060057
0.096,-0.3057549067455838
0.097,-0.25175736189881415
0.098,-0.17911147451160847
0.099,-0.09305925657901318
0.1,3.431486960158942e-16
0.101,0.09305925657901357
0.10200000000000001,0.179111474511609
0.10300000000000001,0.25175736189881487
0.10400000000000001,0.3057549067455845
0.105,0.33745816110600557
0.106,0.34510354163765017
0.107,0.32891677886634196
0.108,0.29103112604464754
0.109,0.23522581906876983
0.11,0.16651126377262898
0.111,0.09060230624406262
0.112,0.013331761070963413
0.113,-0.05993792529563424
0.114,-0.12484696945975923
0.115,-0.1784622415919697
0.116,-0.21955145112773658
0.117,-0.24868085187435304
0.11800000000000001,-0.26812722404959666
0.11900000000000001,-0.28161322376277503
0.12,-0.2938926261462364
0.121,-0.31022681772712835
0.122,-0.3358046629478556
0.123,-0.3751635228662347
0.124,-0.4316691858875059
0.125,-0.5071067811865472
0.126,-0.6014239409445323
0.127,-0.7126526143378978
0.128,-0.837018468659634
0.129,-0.9692284505515588
0.13,-1.1029096205211841
0.131,-1.2311575261138956
0.132,-1.347141597348406
0.133,-1.444709388629941
0.134,-1.5189315095359042
0.135,-1.5665347823359441
0.136,-1.5861819810893947
0.137,-1.5785713887731063
0.138,-1.5463469005608816
0.139,-1.4938277931935586
0.14,-1.4265847744427294
0.14100000000000001,-1.3509038130349615
0.14200000000000002,-1.2731900734211437
0.14300000000000002,-1.199369984451652
0.14400000000000002,-1.1343495004340018
0.145,-1.0815809667413745
0.146,-1.042780235106305
0.147,-1.0178208420704298
0.148,-1.0048146215522056
0.149,-1.0003697782728944
0.15,-1.0000000000000009
0.151,-0.9986433424585691
0.152,-0.9912388353043396
0.153,-0.9733030871357319
0.154,-0.9414491675226508
0.155,-0.8937957144489015
0.156,-0.8302250010233758
0.157,-0.7524635394258432
0.158,-0.6639762488361178
0.159,-0.5696835583189224
0.16,-0.47552825814757743
0.161,-0.38793374471489184
0.162,-0.31320607121562055
0.163,-0.25693786259485535
0.164,-0.22347212384264406
0.165,-0.2154782660407908
0.166,-0.2336818505518233
0.167,-0.2767746653779471
0.168,-0.34151425365562665
0.169,-0.4230036224352293
0.17,-0.5151243682287111
0.171,-0.6110815741998236
0.17200000000000001,-0.7040080168919461
0.17300000000000001,-0.7875695249230228
0.17400000000000002,-0.8565133138982907
0.17500000000000002,-0.9071067811865484
0.176,-0.9374250259698712
0.177,-0.9474602077810681
0.178,-0.9390433165495233
0.179,-0.9155872895788242
0.18,-0.8816778784387098
0.181,-0.8425535319414851
0.182,-0.803526365908396
0.183,-0.7694019796263896
0.184,-0.7439558970756943
0.185,-0.7295187578871237
0.186,-0.7267116136703865
0.187,-0.7343578559739277
0.188,-0.7495808664403186
0.189,-0.7680781467346461
0.19,-0.7845452525225249
0.191,-0.7932080311472298
0.192,-0.7884109003743571
0.193,-0.7652032616594264
0.194,-0.7198661708091
0.195,-0.650327091186468
0.196,-0.5564213738741934
0.197,-0.43997398853584124
0.198,-0.30469251357023486
0.199,-0.15588077473526957
0.2,1.964386723728472e-16
0.201,0.1558807747352725
0.202,0.3046925135702364
0.203,0.43997398853584346
0.20400000000000001,0.5564213738741927
0.20500000000000002,0.650327091186469
0.20600000000000002,0.7198661708091003
0.20700000000000002,0.7652032616594262
0.20800000000000002,0.7884109003743554
0.209,0.7932080311472269
0.21,0.7845452525225237
0.211,0.7680781467346453
0.212,0.7495808664403179
0.213,0.7343578559739271
0.214,0.7267116136703867
0.215,0.7295187578871236
0.216,0.7439558970756941
0.217,0.7694019796263893
0.218,0.8035263659083968
0.219,0.842553531941486
0.22,0.8816778784387107
0.221,0.9155872895788251
0.222,0.9390433165495242
0.223,0.9474602077810681
0.224,0.9374250259698715
0.225,0.9071067811865479
0.226,0.8565133138982908
0.227,0.7875695249230211
0.228,0.7040080168919443
0.229,0.6110815741998213
0.23,0.5151243682287097
0.231,0.4230036224352259
0.232,0.3415142536556261
0.233,0.2767746653779466
0.234,0.23368185055182306
0.23500000000000001,0.21547826604079082
0.23600000000000002,0.2234721238426446
0.23700000000000002,0.2569378625948565
0.23800000000000002,0.31320607121562233
0.23900000000000002,0.38793374471489334
0.24,0.4755282581475759
0.241,0.5696835583189223
0.242,0.6639762488361177
0.243,0.7524635394258414
0.244,0.8302250010233753
0.245,0.8937957144489005
0.246,0.9414491675226503
0.247,0.9733030871357297
0.248,0.9912388353043395
0.249,0.9986433424585691
0.25,0.9999999999999991
0.251,1.000369778272893
0.252,1.0048146215522025
0.253,1.0178208420704289
0.254,1.042780235106304
0.255,1.081580966741375
0.256,1.1343495004340025
0.257,1.1993699844516528
0.258,1.273190073421144
0.259,1.3509038130349638
0.26,1.4265847744427314
0.261,1.4938277931935604
0.262,1.546346900560883
0.263,1.578571388773107
0.264,1.5861819810893945
0.265,1.5665347823359441
0.266,1.5189315095359035
0.267,1.4447093886299402
0.268,1.3471415973484038
0.269,1.231157526113895
0.27,1.1029096205211832
0.271,0.9692284505515579
0.272,0.8370184686596291
0.273,0.7126526143378937
0.274,0.601423940944531
0.275,0.5071067811865461
0.276,0.431669185887505
0.277,0.3751635228662351
0.278,0.33580466294785716
0.279,0.31022681772713134
0.28,0.29389262614623946
0.281,0.28161322376277514
0.28200000000000003,0.2681272240495964
0.28300000000000003,0.24868085187435335
0.28400000000000003,0.2195514511277353
0.28500000000000003,0.17846224159196913
0.28600000000000003,0.1248469694597581
0.28700000000000003,0.05993792529563316
0.28800000000000003,-0.013331761070964926
0.289,-0.09060230624406299
0.29,-0.1665112637726292
0.291,-0.23522581906876747
0.292,-0.29103112604464565
0.293,-0.32891677886634085
0.294,-0.3451035416376505
0.295,-0.33745816110600635
0.296,-0.3057549067455854
0.297,-0.2517573618988158
0.298,-0.1791114745116087
0.299,-0.0930592565790132
0.3,3.1890335228758254e-16
0.301,0.09305925657901108
0.302,0.1791114745116068
0.303,0.25175736189881276
0.304,0.30575490674558303
0.305,0.33745816110600485
0.306,0.3451035416376498
0.307,0.3289167788663415
0.308,0.29103112604464676
0.309,0.23522581906876894
0.31,0.16651126377262818
0.311,0.09060230624406483
0.312,0.013331761070964426
0.313,-0.05993792529563319
0.314,-0.12484696945975762
0.315,-0.1784622415919707
0.316,-0.21955145112773672
0.317,-0.248680851874353
0.318,-0.2681272240495954
0.319,-0.2816132237627736
0.32,-0.29389262614623646
0.321,-0.31022681772712835
0.322,-0.3358046629478541
0.323,-0.3751635228662323
0.324,-0.43166918588750747
0.325,-0.507106781186549
0.326,-0.6014239409445343
0.327,-0.7126526143378988
0.328,-0.8370184686596353
0.329,-0.9692284505515604
0.33,-1.1029096205211832
0.331,-1.231157526113895
0.332,-1.3471415973484067
0.333,-1.4447093886299425
0.334,-1.518931509535905
0.335,-1.566534782335945
0.336,-1.586181981089394
0.337,-1.578571388773105
0.338,-1.5463469005608796
0.339,-1.4938277931935593
0.34,-1.42658477444273
0.341,-1.3509038130349618
0.342,-1.2731900734211423
0.343,-1.199369984451651
0.34400000000000003,-1.1343495004340007
0.34500000000000003,-1.0815809667413736
0.34600000000000003,-1.0427802351063047
0.34700000000000003,-1.017820842070431
0.34800000000000003,-1.0048146215522071
0.34900000000000003,-1.0003697782728957
0.35000000000000003,-0.9999999999999984
0.35100000000000003,-0.9986433424585683
0.352,-0.9912388353043398
0.353,-0.973303087135732
0.354,-0.9414491675226528
0.355,-0.8937957144489035
0.356,-0.8302250010233784
0.357,-0.752463539425846
0.358,-0.6639762488361198
0.359,-0.5696835583189245
0.36,-0.4755282581475781
0.361,-0.38793374471489256
0.362,-0.3132060712156214
0.363,-0.25693786259485585
0.364,-0.2234721238426442
0.365,-0.2154782660407907
0.366,-0.23368185055182206
0.367,-0.2767746653779458
0.368,-0.34151425365562493
0.369,-0.42300362243522727
0.37,-0.5151243682287103
0.371,-0.6110815741998218
0.372,-0.7040080168919444
0.373,-0.787569524923021
0.374,-0.856513313898289
0.375,-0.9071067811865458
0.376,-0.9374250259698721
0.377,-0.9474602077810691
0.378,-0.9390433165495233
0.379,-0.9155872895788231
0.38,-0.8816778784387087
0.381,-0.8425535319414841
0.382,-0.8035263659083952
0.383,-0.7694019796263881
0.384,-0.7439558970756935
0.385,-0.7295187578871236
0.386,-0.7267116136703861
0.387,-0.734357855973927
0.388,-0.7495808664403196
0.389,-0.7680781467346475
0.39,-0.7845452525225263
0.391,-0.7932080311472312
0.392,-0.7884109003743602
0.393,-0.7652032616594264
0.394,-0.7198661708090992
0.395,-0.6503270911864664
0.396,-0.5564213738741919
0.397,-0.43997398853584224
0.398,-0.30469251357023486
0.399,-0.15588077473526943
0.4,3.928773447456944e-16
0.401,0.15588077473527534
0.402,0.3046925135702402
0.403,0.43997398853584674
0.404,0.5564213738741943
0.405,0.6503270911864684
0.406,0.7198661708090999
0.40700000000000003,0.7652032616594259
0.40800000000000003,0.7884109003743551
0.40900000000000003,0.7932080311472285
0.41000000000000003,0.7845452525225237
0.41100000000000003,0.7680781467346476
0.41200000000000003,0.7495808664403174
0.41300000000000003,0.7343578559739271
0.41400000000000003,0.7267116136703853
0.41500000000000004,0.7295187578871237
0.41600000000000004,0.7439558970756956
0.417,0.7694019796263876
0.418,0.8035263659083973
0.419,0.842553531941483
0.42,0.8816778784387105
0.421,0.9155872895788223
0.422,0.9390433165495252
0.423,0.9474602077810692
0.424,0.9374250259698738
0.425,0.9071067811865494
0.426,0.8565133138982932
0.427,0.7875695249230218
0.428,0.7040080168919471
0.429,0.611081574199822
0.43,0.5151243682287133
0.431,0.4230036224352273
0.432,0.3415142536556274
0.433,0.27677466537794587
0.434,0.2336818505518236
0.435,0.21547826604079115
0.436,0.22347212384264442
0.437,0.2569378625948544
0.438,0.3132060712156217
0.439,0.38793374471489006
0.44,0.47552825814757815
0.441,0.5696835583189216
0.442,0.6639762488361192
0.443,0.7524635394258408
0.444,0.8302250010233769
0.445,0.8937957144489017
0.446,0.9414491675226517
0.447,0.9733030871357295
0.448,0.9912388353043393
0.449,0.9986433424585663
0.45,0.9999999999999991
0.451,1.0003697782728902
0.452,1.0048146215522022
0.453,1.0178208420704284
0.454,1.042780235106305
0.455,1.0815809667413747
0.456,1.134349500434003
0.457,1.199369984451652
0.458,1.273190073421146
0.459,1.350903813034963
0.46,1.4265847744427336
0.461,1.4938277931935602
0.462,1.5463469005608845
0.463,1.5785713887731068
0.464,1.5861819810893938
0.465,1.5665347823359441
0.466,1.518931509535904
0.467,1.4447093886299391
0.468,1.3471415973484047
0.46900000000000003,1.2311575261138934
0.47000000000000003,1.1029096205211806
0.47100000000000003,0.9692284505515522
0.47200000000000003,0.8370184686596303
0.47300000000000003,0.712652614337893
0.47400000000000003,0.601423940944531
0.47500000000000003,0.5071067811865467
0.47600000000000003,0.43166918588750647
0.47700000000000004,0.37516352286623544
0.47800000000000004,0.3358046629478597
0.47900000000000004,0.31022681772712707
0.48,0.29389262614623685
0.481,0.28161322376277387
0.482,0.2681272240495982
0.483,0.2486808518743536
0.484,0.21955145112773863
0.485,0.17846224159197213
0.486,0.12484696945976087
0.487,0.05993792529563721
0.488,-0.013331761070964301
0.489,-0.09060230624406243
0.49,-0.1665112637726315
0.491,-0.23522581906876971
0.492,-0.29103112604464537
0.493,-0.3289167788663423
0.494,-0.34510354163765045
0.495,-0.33745816110600657
0.496,-0.3057549067455844
0.497,-0.2517573618988131
0.498,-0.1791114745116093
0.499,-0.09305925657901121
0.5,-4.1588472720082943e-16
0.501,0.09305925657901037
0.502,0.17911147451160847
0.503,0.25175736189881226
0.504,0.3057549067455836
0.505,0.3374581611060058
0.506,0.3451035416376498
0.507,0.3289167788663417
0.508,0.29103112604464487
0.509,0.23522581906876938
0.51,0.16651126377263095
0.511,0.09060230624406276
0.512,0.013331761070963524
0.513,-0.05993792529563427
0.514,-0.12484696945975943
0.515,-0.17846224159196766
0.516,-0.21955145112773633
0.517,-0.2486808518743475
0.518,-0.2681272240495951
0.519,-0.2816132237627748
0.52,-0.29389262614623335
0.521,-0.31022681772713256
0.522,-0.33580466294785155
0.523,-0.37516352286623667
0.524,-0.43166918588750114
0.525,-0.5071067811865482
0.526,-0.6014239409445391
0.527,-0.712652614337898
0.528,-0.8370184686596409
0.529,-0.9692284505515593
0.53,-1.1029096205211857
0.531,-1.2311575261138965
0.532,-1.3471415973484058
0.533,-1.4447093886299407
0.534,-1.5189315095359048
0.535,-1.5665347823359466
0.536,-1.586181981089394
0.537,-1.5785713887731045
0.538,-1.5463469005608799
0.539,-1.4938277931935595
0.54,-1.4265847744427278
0.541,-1.3509038130349624
0.542,-1.273190073421142
0.543,-1.1993699844516512
0.544,-1.1343495004339983
0.545,-1.0815809667413738
0.546,-1.0427802351063034
0.547,-1.017820842070431
0.548,-1.0048146215522016
0.549,-1.0003697782728984
0.55,-0.9999999999999986
0.551,-0.9986433424585746
0.552,-0.9912388353043387
0.553,-0.9733030871357287
0.554,-0.9414491675226508
0.555,-0.8937957144488975
0.556,-0.830225001023374
0.557,-0.7524635394258364
0.558,-0.6639762488361158
0.559,-0.5696835583189205
0.56,-0.4755282581475731
0.561,-0.3879337447148892
0.562,-0.31320607121561556
0.5630000000000001,-0.25693786259485407
0.5640000000000001,-0.22347212384264242
0.5650000000000001,-0.21547826604079087
0.5660000000000001,-0.23368185055182567
0.5670000000000001,-0.2767746653779487
0.5680000000000001,-0.34151425365562804
0.5690000000000001,-0.423003622435232
0.5700000000000001,-0.5151243682287142
0.5710000000000001,-0.6110815741998306
0.5720000000000001,-0.7040080168919483
0.5730000000000001,-0.7875695249230282
0.5740000000000001,-0.8565133138982919
0.5750000000000001,-0.9071067811865501
0.5760000000000001,-0.9374250259698703
0.577,-0.9474602077810689
0.578,-0.9390433165495234
0.579,-0.9155872895788244
0.58,-0.8816778784387092
0.581,-0.8425535319414862
0.582,-0.8035263659084002
0.583,-0.7694019796263896
0.584,-0.7439558970756955
0.585,-0.7295187578871245
0.586,-0.7267116136703862
0.587,-0.7343578559739269
0.588,-0.7495808664403191
0.589,-0.7680781467346472
0.59,-0.7845452525225262
0.591,-0.7932080311472312
0.592,-0.7884109003743616
0.593,-0.7652032616594273
0.594,-0.7198661708091073
0.595,-0.6503270911864716
0.596,-0.5564213738741927
0.597,-0.4399739885358499
0.598,-0.30469251357023597
0.599,-0.15588077473527862
0.6,-8.317694544016589e-16
0.601,0.15588077473526085
0.602,0.3046925135702293
0.603,0.4399739885358339
0.604,0.5564213738741878
0.605,0.6503270911864678
0.606,0.7198661708090961
0.607,0.7652032616594258
0.608,0.7884109003743538
0.609,0.7932080311472259
0.61,0.784545252522521
0.611,0.7680781467346481
0.612,0.7495808664403161
0.613,0.7343578559739274
0.614,0.7267116136703863
0.615,0.7295187578871232
0.616,0.7439558970756945
0.617,0.769401979626389
0.618,0.8035263659083984
0.619,0.8425535319414865
0.62,0.8816778784387129
0.621,0.915587289578823
0.622,0.9390433165495227
0.623,0.9474602077810688
0.624,0.9374250259698729
0.625,0.9071067811865474
0.626,0.8565133138982929
0.627,0.7875695249230206
0.628,0.7040080168919477
0.629,0.61108157419982
0.63,0.5151243682287094
0.631,0.42300362243523065
0.632,0.3415142536556243
0.633,0.27677466537794804
0.634,0.2336818505518224
0.635,0.21547826604079123
0.636,0.22347212384264525
0.637,0.2569378625948553
0.638,0.31320607121562355
0.639,0.3879337447148934
0.64,0.47552825814757455
0.641,0.5696835583189257
0.642,0.6639762488361161
0.643,0.7524635394258444
0.644,0.8302250010233727
0.645,0.8937957144489013
0.646,0.9414491675226472
0.647,0.9733030871357277
0.648,0.9912388353043405
0.649,0.9986433424585691
0.65,0.9999999999999998
0.651,1.0003697782728929
0.652,1.0048146215522034
0.653,1.017820842070427
0.654,1.042780235106304
0.655,1.0815809667413718
0.656,1.1343495004340034
0.657,1.1993699844516552
0.658,1.2731900734211479
0.659,1.3509038130349662
0.66,1.4265847744427302
0.661,1.4938277931935624
0.662,1.5463469005608825
0.663,1.578571388773108
0.664,1.5861819810893933
0.665,1.5665347823359443
0.666,1.5189315095359013
0.667,1.4447093886299383
0.668,1.3471415973483998
0.669,1.231157526113897
0.67,1.1029096205211786
0.671,0.9692284505515602
0.672,0.837018468659629
0.673,0.7126526143378911
0.674,0.6014239409445309
0.675,0.5071067811865427
0.676,0.4316691858875079
0.677,0.3751635228662328
0.678,0.33580466294785777
0.679,0.31022681772713
0.68,0.2938926261462397
0.681,0.2816132237627781
0.682,0.268127224049593
0.683,0.2486808518743554
0.684,0.21955145112773364
0.685,0.1784622415919698
0.686,0.1248469694597559
0.687,0.05993792529563083
0.6880000000000001,-0.013331761070967549
0.6890000000000001,-0.09060230624406454
0.6900000000000001,-0.16651126377263437
0.6910000000000001,-0.23522581906877227
0.6920000000000001,-0.29103112604465164
0.6930000000000001,-0.3289167788663427
0.6940000000000001,-0.3451035416376522
0.6950000000000001,-0.33745816110600446
0.6960000000000001,-0.30575490674558214
0.6970000000000001,-0.2517573618988104
0.6980000000000001,-0.17911147451160764
0.6990000000000001,-0.09305925657900745
0.7000000000000001,5.24421181515166e-15
0.7010000000000001,0.09305925657901953
0.7020000000000001,0.17911147451161347
0.7030000000000001,0.2517573618988183
0.704,0.30575490674558237
0.705,0.33745816110600335
0.706,0.34510354163764984
0.707,0.3289167788663435
0.708,0.2910311260446473
0.709,0.23522581906877263
0.71,0.16651126377262987
0.711,0.090602306244066
0.712,0.013331761070969339
0.713,-0.05993792529563205
0.714,-0.12484696945975352
0.715,-0.17846224159196733
0.716,-0.21955145112773694
0.717,-0.24868085187434913
0.718,-0.2681272240495974
0.719,-0.2816132237627693
0.72,-0.2938926261462362
0.721,-0.3102268177271207
0.722,-0.3358046629478536
0.723,-0.37516352286622834
0.724,-0.4316691858875015
0.725,-0.5071067811865476
0.726,-0.6014239409445279
0.727,-0.7126526143378953
